# Pulseq sequence file
# Created by MATLAB mr toolbox

[VERSION]
major 1
minor 4
revision 0

[DEFINITIONS]
AdcRasterTime 1e-07 
BlockDurationRaster 1e-05 
FOV 0.1 0.1 0.1 
GradientRasterTime 1e-05 
Name girf_skope2 
RadiofrequencyRasterTime 1e-06 
TotalDuration 239.00472 

# Format of blocks:
# NUM DUR RF  GX  GY  GZ  ADC  EXT
[BLOCKS]
  1  40   0   0   0   0  0  1
  2 6410   0   0   0   1  1  0
  3 93552   0   0   0   0  0  0
  4  40   0   0   0   0  0  1
  5 6410   0   0   0   1  1  0
  6 93552   0   0   0   0  0  0
  7  40   0   0   0   0  0  1
  8 6410   0   0   0   1  1  0
  9 93552   0   0   0   0  0  0
 10  40   0   0   0   0  0  1
 11 6410   0   0   0   1  1  0
 12 93552   0   0   0   0  0  0
 13  40   0   0   0   0  0  1
 14 6410   0   0   0   1  1  0
 15 93552   0   0   0   0  0  0
 16  40   0   0   0   0  0  1
 17 6410   0   0   0   1  1  0
 18 93552   0   0   0   0  0  0
 19  40   0   0   0   0  0  1
 20 6410   0   0   0   1  1  0
 21 93552   0   0   0   0  0  0
 22  40   0   0   0   0  0  1
 23 6410   0   0   0   1  1  0
 24 93552   0   0   0   0  0  0
 25  40   0   0   0   0  0  1
 26 6410   0   0   0   1  1  0
 27 93552   0   0   0   0  0  0
 28  40   0   0   0   0  0  1
 29 6410   0   0   0   1  1  0
 30 93552   0   0   0   0  0  0
 31  40   0   0   0   0  0  1
 32 6410   0   0   0   1  1  0
 33 93552   0   0   0   0  0  0
 34  40   0   0   0   0  0  1
 35 6410   0   0   0   1  1  0
 36 93552   0   0   0   0  0  0
 37  40   0   0   0   0  0  1
 38 6410   0   0   0   1  1  0
 39 93552   0   0   0   0  0  0
 40  40   0   0   0   0  0  1
 41 6410   0   0   0   1  1  0
 42 93552   0   0   0   0  0  0
 43  40   0   0   0   0  0  1
 44 6410   0   0   0   1  1  0
 45 93552   0   0   0   0  0  0
 46  40   0   0   0   0  0  1
 47 6410   0   0   0   1  1  0
 48 93552   0   0   0   0  0  0
 49  40   0   0   0   0  0  1
 50 6410   0   0   0   1  1  0
 51 93552   0   0   0   0  0  0
 52  40   0   0   0   0  0  1
 53 6410   0   0   0   1  1  0
 54 93552   0   0   0   0  0  0
 55  40   0   0   0   0  0  1
 56 6410   0   0   0   1  1  0
 57 93552   0   0   0   0  0  0
 58  40   0   0   0   0  0  1
 59 6410   0   0   0   1  1  0
 60 93552   0   0   0   0  0  0
 61 300000   0   0   0   0  0  0
 62  40   0   0   0   0  0  1
 63 6410   0   1   0   0  1  0
 64 93552   0   0   0   0  0  0
 65  40   0   0   0   0  0  1
 66 6410   0   0   1   0  1  0
 67 93552   0   0   0   0  0  0
 68  40   0   0   0   0  0  1
 69 6410   0   0   0   1  1  0
 70 93552   0   0   0   0  0  0
 71  40   0   0   0   0  0  1
 72 6410   0   2   0   0  1  0
 73 93552   0   0   0   0  0  0
 74  40   0   0   0   0  0  1
 75 6410   0   0   2   0  1  0
 76 93552   0   0   0   0  0  0
 77  40   0   0   0   0  0  1
 78 6410   0   0   0   2  1  0
 79 93552   0   0   0   0  0  0
 80  40   0   0   0   0  0  1
 81 6410   0   3   0   0  1  0
 82 93552   0   0   0   0  0  0
 83  40   0   0   0   0  0  1
 84 6410   0   0   3   0  1  0
 85 93552   0   0   0   0  0  0
 86  40   0   0   0   0  0  1
 87 6410   0   0   0   3  1  0
 88 93552   0   0   0   0  0  0
 89  40   0   0   0   0  0  1
 90 6410   0   4   0   0  1  0
 91 93552   0   0   0   0  0  0
 92  40   0   0   0   0  0  1
 93 6410   0   0   4   0  1  0
 94 93552   0   0   0   0  0  0
 95  40   0   0   0   0  0  1
 96 6410   0   0   0   4  1  0
 97 93552   0   0   0   0  0  0
 98  40   0   0   0   0  0  1
 99 6410   0   5   0   0  1  0
100 93552   0   0   0   0  0  0
101  40   0   0   0   0  0  1
102 6410   0   0   5   0  1  0
103 93552   0   0   0   0  0  0
104  40   0   0   0   0  0  1
105 6410   0   0   0   5  1  0
106 93552   0   0   0   0  0  0
107  40   0   0   0   0  0  1
108 6410   0   6   0   0  1  0
109 93552   0   0   0   0  0  0
110  40   0   0   0   0  0  1
111 6410   0   0   6   0  1  0
112 93552   0   0   0   0  0  0
113  40   0   0   0   0  0  1
114 6410   0   0   0   6  1  0
115 93552   0   0   0   0  0  0
116  40   0   0   0   0  0  1
117 6410   0   7   0   0  1  0
118 93552   0   0   0   0  0  0
119  40   0   0   0   0  0  1
120 6410   0   0   7   0  1  0
121 93552   0   0   0   0  0  0
122  40   0   0   0   0  0  1
123 6410   0   0   0   7  1  0
124 93552   0   0   0   0  0  0
125  40   0   0   0   0  0  1
126 6410   0   8   0   0  1  0
127 93552   0   0   0   0  0  0
128  40   0   0   0   0  0  1
129 6410   0   0   8   0  1  0
130 93552   0   0   0   0  0  0
131  40   0   0   0   0  0  1
132 6410   0   0   0   8  1  0
133 93552   0   0   0   0  0  0
134  40   0   0   0   0  0  1
135 6410   0   9   0   0  1  0
136 93552   0   0   0   0  0  0
137  40   0   0   0   0  0  1
138 6410   0   0   9   0  1  0
139 93552   0   0   0   0  0  0
140  40   0   0   0   0  0  1
141 6410   0   0   0   9  1  0
142 93552   0   0   0   0  0  0
143  40   0   0   0   0  0  1
144 6410   0   1   0   0  1  0
145 93552   0   0   0   0  0  0
146  40   0   0   0   0  0  1
147 6410   0   0   1   0  1  0
148 93552   0   0   0   0  0  0
149  40   0   0   0   0  0  1
150 6410   0   0   0   1  1  0
151 93552   0   0   0   0  0  0
152  40   0   0   0   0  0  1
153 6410   0  10   0   0  1  0
154 93552   0   0   0   0  0  0
155  40   0   0   0   0  0  1
156 6410   0   0  10   0  1  0
157 93552   0   0   0   0  0  0
158  40   0   0   0   0  0  1
159 6410   0   0   0  10  1  0
160 93552   0   0   0   0  0  0
161  40   0   0   0   0  0  1
162 6410   0  11   0   0  1  0
163 93552   0   0   0   0  0  0
164  40   0   0   0   0  0  1
165 6410   0   0  11   0  1  0
166 93552   0   0   0   0  0  0
167  40   0   0   0   0  0  1
168 6410   0   0   0  11  1  0
169 93552   0   0   0   0  0  0
170  40   0   0   0   0  0  1
171 6410   0  12   0   0  1  0
172 93552   0   0   0   0  0  0
173  40   0   0   0   0  0  1
174 6410   0   0  12   0  1  0
175 93552   0   0   0   0  0  0
176  40   0   0   0   0  0  1
177 6410   0   0   0  12  1  0
178 93552   0   0   0   0  0  0
179  40   0   0   0   0  0  1
180 6410   0  13   0   0  1  0
181 93552   0   0   0   0  0  0
182  40   0   0   0   0  0  1
183 6410   0   0  13   0  1  0
184 93552   0   0   0   0  0  0
185  40   0   0   0   0  0  1
186 6410   0   0   0  13  1  0
187 93552   0   0   0   0  0  0
188  40   0   0   0   0  0  1
189 6410   0  14   0   0  1  0
190 93552   0   0   0   0  0  0
191  40   0   0   0   0  0  1
192 6410   0   0  14   0  1  0
193 93552   0   0   0   0  0  0
194  40   0   0   0   0  0  1
195 6410   0   0   0  14  1  0
196 93552   0   0   0   0  0  0
197  40   0   0   0   0  0  1
198 6410   0  15   0   0  1  0
199 93552   0   0   0   0  0  0
200  40   0   0   0   0  0  1
201 6410   0   0  15   0  1  0
202 93552   0   0   0   0  0  0
203  40   0   0   0   0  0  1
204 6410   0   0   0  15  1  0
205 93552   0   0   0   0  0  0
206  40   0   0   0   0  0  1
207 6410   0  16   0   0  1  0
208 93552   0   0   0   0  0  0
209  40   0   0   0   0  0  1
210 6410   0   0  16   0  1  0
211 93552   0   0   0   0  0  0
212  40   0   0   0   0  0  1
213 6410   0   0   0  16  1  0
214 93552   0   0   0   0  0  0
215  40   0   0   0   0  0  1
216 6410   0  17   0   0  1  0
217 93552   0   0   0   0  0  0
218  40   0   0   0   0  0  1
219 6410   0   0  17   0  1  0
220 93552   0   0   0   0  0  0
221  40   0   0   0   0  0  1
222 6410   0   0   0  17  1  0
223 93552   0   0   0   0  0  0
224  40   0   0   0   0  0  1
225 6410   0   1   0   0  1  0
226 93552   0   0   0   0  0  0
227  40   0   0   0   0  0  1
228 6410   0   0   1   0  1  0
229 93552   0   0   0   0  0  0
230  40   0   0   0   0  0  1
231 6410   0   0   0   1  1  0
232 93552   0   0   0   0  0  0
233  40   0   0   0   0  0  1
234 6410   0  18   0   0  1  0
235 93552   0   0   0   0  0  0
236  40   0   0   0   0  0  1
237 6410   0   0  18   0  1  0
238 93552   0   0   0   0  0  0
239  40   0   0   0   0  0  1
240 6410   0   0   0  18  1  0
241 93552   0   0   0   0  0  0
242  40   0   0   0   0  0  1
243 6410   0  19   0   0  1  0
244 93552   0   0   0   0  0  0
245  40   0   0   0   0  0  1
246 6410   0   0  19   0  1  0
247 93552   0   0   0   0  0  0
248  40   0   0   0   0  0  1
249 6410   0   0   0  19  1  0
250 93552   0   0   0   0  0  0
251  40   0   0   0   0  0  1
252 6410   0  20   0   0  1  0
253 93552   0   0   0   0  0  0
254  40   0   0   0   0  0  1
255 6410   0   0  20   0  1  0
256 93552   0   0   0   0  0  0
257  40   0   0   0   0  0  1
258 6410   0   0   0  20  1  0
259 93552   0   0   0   0  0  0
260  40   0   0   0   0  0  1
261 6410   0  21   0   0  1  0
262 93552   0   0   0   0  0  0
263  40   0   0   0   0  0  1
264 6410   0   0  21   0  1  0
265 93552   0   0   0   0  0  0
266  40   0   0   0   0  0  1
267 6410   0   0   0  21  1  0
268 93552   0   0   0   0  0  0
269  40   0   0   0   0  0  1
270 6410   0  22   0   0  1  0
271 93552   0   0   0   0  0  0
272  40   0   0   0   0  0  1
273 6410   0   0  22   0  1  0
274 93552   0   0   0   0  0  0
275  40   0   0   0   0  0  1
276 6410   0   0   0  22  1  0
277 93552   0   0   0   0  0  0
278  40   0   0   0   0  0  1
279 6410   0  23   0   0  1  0
280 93552   0   0   0   0  0  0
281  40   0   0   0   0  0  1
282 6410   0   0  23   0  1  0
283 93552   0   0   0   0  0  0
284  40   0   0   0   0  0  1
285 6410   0   0   0  23  1  0
286 93552   0   0   0   0  0  0
287  40   0   0   0   0  0  1
288 6410   0  24   0   0  1  0
289 93552   0   0   0   0  0  0
290  40   0   0   0   0  0  1
291 6410   0   0  24   0  1  0
292 93552   0   0   0   0  0  0
293  40   0   0   0   0  0  1
294 6410   0   0   0  24  1  0
295 93552   0   0   0   0  0  0
296  40   0   0   0   0  0  1
297 6410   0  25   0   0  1  0
298 93552   0   0   0   0  0  0
299  40   0   0   0   0  0  1
300 6410   0   0  25   0  1  0
301 93552   0   0   0   0  0  0
302  40   0   0   0   0  0  1
303 6410   0   0   0  25  1  0
304 93552   0   0   0   0  0  0
305  40   0   0   0   0  0  1
306 6410   0   1   0   0  1  0
307 93552   0   0   0   0  0  0
308  40   0   0   0   0  0  1
309 6410   0   0   1   0  1  0
310 93552   0   0   0   0  0  0
311  40   0   0   0   0  0  1
312 6410   0   0   0   1  1  0
313 93552   0   0   0   0  0  0
314  40   0   0   0   0  0  1
315 6410   0  26   0   0  1  0
316 93552   0   0   0   0  0  0
317  40   0   0   0   0  0  1
318 6410   0   0  26   0  1  0
319 93552   0   0   0   0  0  0
320  40   0   0   0   0  0  1
321 6410   0   0   0  26  1  0
322 93552   0   0   0   0  0  0
323  40   0   0   0   0  0  1
324 6410   0  27   0   0  1  0
325 93552   0   0   0   0  0  0
326  40   0   0   0   0  0  1
327 6410   0   0  27   0  1  0
328 93552   0   0   0   0  0  0
329  40   0   0   0   0  0  1
330 6410   0   0   0  27  1  0
331 93552   0   0   0   0  0  0
332  40   0   0   0   0  0  1
333 6410   0  28   0   0  1  0
334 93552   0   0   0   0  0  0
335  40   0   0   0   0  0  1
336 6410   0   0  28   0  1  0
337 93552   0   0   0   0  0  0
338  40   0   0   0   0  0  1
339 6410   0   0   0  28  1  0
340 93552   0   0   0   0  0  0
341  40   0   0   0   0  0  1
342 6410   0  29   0   0  1  0
343 93552   0   0   0   0  0  0
344  40   0   0   0   0  0  1
345 6410   0   0  29   0  1  0
346 93552   0   0   0   0  0  0
347  40   0   0   0   0  0  1
348 6410   0   0   0  29  1  0
349 93552   0   0   0   0  0  0
350  40   0   0   0   0  0  1
351 6410   0  30   0   0  1  0
352 93552   0   0   0   0  0  0
353  40   0   0   0   0  0  1
354 6410   0   0  30   0  1  0
355 93552   0   0   0   0  0  0
356  40   0   0   0   0  0  1
357 6410   0   0   0  30  1  0
358 93552   0   0   0   0  0  0
359  40   0   0   0   0  0  1
360 6410   0  31   0   0  1  0
361 93552   0   0   0   0  0  0
362  40   0   0   0   0  0  1
363 6410   0   0  31   0  1  0
364 93552   0   0   0   0  0  0
365  40   0   0   0   0  0  1
366 6410   0   0   0  31  1  0
367 93552   0   0   0   0  0  0
368  40   0   0   0   0  0  1
369 6410   0  32   0   0  1  0
370 93552   0   0   0   0  0  0
371  40   0   0   0   0  0  1
372 6410   0   0  32   0  1  0
373 93552   0   0   0   0  0  0
374  40   0   0   0   0  0  1
375 6410   0   0   0  32  1  0
376 93552   0   0   0   0  0  0
377  40   0   0   0   0  0  1
378 6410   0  33   0   0  1  0
379 93552   0   0   0   0  0  0
380  40   0   0   0   0  0  1
381 6410   0   0  33   0  1  0
382 93552   0   0   0   0  0  0
383  40   0   0   0   0  0  1
384 6410   0   0   0  33  1  0
385 93552   0   0   0   0  0  0
386  40   0   0   0   0  0  1
387 6410   0   1   0   0  1  0
388 93552   0   0   0   0  0  0
389  40   0   0   0   0  0  1
390 6410   0   0   1   0  1  0
391 93552   0   0   0   0  0  0
392  40   0   0   0   0  0  1
393 6410   0   0   0   1  1  0
394 93552   0   0   0   0  0  0
395  40   0   0   0   0  0  1
396 6410   0  34   0   0  1  0
397 93552   0   0   0   0  0  0
398  40   0   0   0   0  0  1
399 6410   0   0  34   0  1  0
400 93552   0   0   0   0  0  0
401  40   0   0   0   0  0  1
402 6410   0   0   0  34  1  0
403 93552   0   0   0   0  0  0
404  40   0   0   0   0  0  1
405 6410   0  35   0   0  1  0
406 93552   0   0   0   0  0  0
407  40   0   0   0   0  0  1
408 6410   0   0  35   0  1  0
409 93552   0   0   0   0  0  0
410  40   0   0   0   0  0  1
411 6410   0   0   0  35  1  0
412 93552   0   0   0   0  0  0
413  40   0   0   0   0  0  1
414 6410   0  36   0   0  1  0
415 93552   0   0   0   0  0  0
416  40   0   0   0   0  0  1
417 6410   0   0  36   0  1  0
418 93552   0   0   0   0  0  0
419  40   0   0   0   0  0  1
420 6410   0   0   0  36  1  0
421 93552   0   0   0   0  0  0
422  40   0   0   0   0  0  1
423 6410   0  37   0   0  1  0
424 93552   0   0   0   0  0  0
425  40   0   0   0   0  0  1
426 6410   0   0  37   0  1  0
427 93552   0   0   0   0  0  0
428  40   0   0   0   0  0  1
429 6410   0   0   0  37  1  0
430 93552   0   0   0   0  0  0
431  40   0   0   0   0  0  1
432 6410   0  38   0   0  1  0
433 93552   0   0   0   0  0  0
434  40   0   0   0   0  0  1
435 6410   0   0  38   0  1  0
436 93552   0   0   0   0  0  0
437  40   0   0   0   0  0  1
438 6410   0   0   0  38  1  0
439 93552   0   0   0   0  0  0
440  40   0   0   0   0  0  1
441 6410   0  39   0   0  1  0
442 93552   0   0   0   0  0  0
443  40   0   0   0   0  0  1
444 6410   0   0  39   0  1  0
445 93552   0   0   0   0  0  0
446  40   0   0   0   0  0  1
447 6410   0   0   0  39  1  0
448 93552   0   0   0   0  0  0
449  40   0   0   0   0  0  1
450 6410   0  40   0   0  1  0
451 93552   0   0   0   0  0  0
452  40   0   0   0   0  0  1
453 6410   0   0  40   0  1  0
454 93552   0   0   0   0  0  0
455  40   0   0   0   0  0  1
456 6410   0   0   0  40  1  0
457 93552   0   0   0   0  0  0
458  40   0   0   0   0  0  1
459 6410   0  41   0   0  1  0
460 93552   0   0   0   0  0  0
461  40   0   0   0   0  0  1
462 6410   0   0  41   0  1  0
463 93552   0   0   0   0  0  0
464  40   0   0   0   0  0  1
465 6410   0   0   0  41  1  0
466 93552   0   0   0   0  0  0
467  40   0   0   0   0  0  1
468 6410   0   1   0   0  1  0
469 93552   0   0   0   0  0  0
470  40   0   0   0   0  0  1
471 6410   0   0   1   0  1  0
472 93552   0   0   0   0  0  0
473  40   0   0   0   0  0  1
474 6410   0   0   0   1  1  0
475 93552   0   0   0   0  0  0
476  40   0   0   0   0  0  1
477 6410   0  42   0   0  1  0
478 93552   0   0   0   0  0  0
479  40   0   0   0   0  0  1
480 6410   0   0  42   0  1  0
481 93552   0   0   0   0  0  0
482  40   0   0   0   0  0  1
483 6410   0   0   0  42  1  0
484 93552   0   0   0   0  0  0
485  40   0   0   0   0  0  1
486 6410   0  43   0   0  1  0
487 93552   0   0   0   0  0  0
488  40   0   0   0   0  0  1
489 6410   0   0  43   0  1  0
490 93552   0   0   0   0  0  0
491  40   0   0   0   0  0  1
492 6410   0   0   0  43  1  0
493 93552   0   0   0   0  0  0
494  40   0   0   0   0  0  1
495 6410   0  44   0   0  1  0
496 93552   0   0   0   0  0  0
497  40   0   0   0   0  0  1
498 6410   0   0  44   0  1  0
499 93552   0   0   0   0  0  0
500  40   0   0   0   0  0  1
501 6410   0   0   0  44  1  0
502 93552   0   0   0   0  0  0
503  40   0   0   0   0  0  1
504 6410   0  45   0   0  1  0
505 93552   0   0   0   0  0  0
506  40   0   0   0   0  0  1
507 6410   0   0  45   0  1  0
508 93552   0   0   0   0  0  0
509  40   0   0   0   0  0  1
510 6410   0   0   0  45  1  0
511 93552   0   0   0   0  0  0
512  40   0   0   0   0  0  1
513 6410   0  46   0   0  1  0
514 93552   0   0   0   0  0  0
515  40   0   0   0   0  0  1
516 6410   0   0  46   0  1  0
517 93552   0   0   0   0  0  0
518  40   0   0   0   0  0  1
519 6410   0   0   0  46  1  0
520 93552   0   0   0   0  0  0
521  40   0   0   0   0  0  1
522 6410   0  47   0   0  1  0
523 93552   0   0   0   0  0  0
524  40   0   0   0   0  0  1
525 6410   0   0  47   0  1  0
526 93552   0   0   0   0  0  0
527  40   0   0   0   0  0  1
528 6410   0   0   0  47  1  0
529 93552   0   0   0   0  0  0
530  40   0   0   0   0  0  1
531 6410   0  48   0   0  1  0
532 93552   0   0   0   0  0  0
533  40   0   0   0   0  0  1
534 6410   0   0  48   0  1  0
535 93552   0   0   0   0  0  0
536  40   0   0   0   0  0  1
537 6410   0   0   0  48  1  0
538 93552   0   0   0   0  0  0
539  40   0   0   0   0  0  1
540 6410   0  49   0   0  1  0
541 93552   0   0   0   0  0  0
542  40   0   0   0   0  0  1
543 6410   0   0  49   0  1  0
544 93552   0   0   0   0  0  0
545  40   0   0   0   0  0  1
546 6410   0   0   0  49  1  0
547 93552   0   0   0   0  0  0
548  40   0   0   0   0  0  1
549 6410   0   1   0   0  1  0
550 93552   0   0   0   0  0  0
551  40   0   0   0   0  0  1
552 6410   0   0   1   0  1  0
553 93552   0   0   0   0  0  0
554  40   0   0   0   0  0  1
555 6410   0   0   0   1  1  0
556 93552   0   0   0   0  0  0
557  40   0   0   0   0  0  1
558 6410   0  50   0   0  1  0
559 93552   0   0   0   0  0  0
560  40   0   0   0   0  0  1
561 6410   0   0  50   0  1  0
562 93552   0   0   0   0  0  0
563  40   0   0   0   0  0  1
564 6410   0   0   0  50  1  0
565 93552   0   0   0   0  0  0
566  40   0   0   0   0  0  1
567 6410   0  51   0   0  1  0
568 93552   0   0   0   0  0  0
569  40   0   0   0   0  0  1
570 6410   0   0  51   0  1  0
571 93552   0   0   0   0  0  0
572  40   0   0   0   0  0  1
573 6410   0   0   0  51  1  0
574 93552   0   0   0   0  0  0
575  40   0   0   0   0  0  1
576 6410   0  52   0   0  1  0
577 93552   0   0   0   0  0  0
578  40   0   0   0   0  0  1
579 6410   0   0  52   0  1  0
580 93552   0   0   0   0  0  0
581  40   0   0   0   0  0  1
582 6410   0   0   0  52  1  0
583 93552   0   0   0   0  0  0
584  40   0   0   0   0  0  1
585 6410   0  53   0   0  1  0
586 93552   0   0   0   0  0  0
587  40   0   0   0   0  0  1
588 6410   0   0  53   0  1  0
589 93552   0   0   0   0  0  0
590  40   0   0   0   0  0  1
591 6410   0   0   0  53  1  0
592 93552   0   0   0   0  0  0
593  40   0   0   0   0  0  1
594 6410   0  54   0   0  1  0
595 93552   0   0   0   0  0  0
596  40   0   0   0   0  0  1
597 6410   0   0  54   0  1  0
598 93552   0   0   0   0  0  0
599  40   0   0   0   0  0  1
600 6410   0   0   0  54  1  0
601 93552   0   0   0   0  0  0
602  40   0   0   0   0  0  1
603 6410   0  55   0   0  1  0
604 93552   0   0   0   0  0  0
605  40   0   0   0   0  0  1
606 6410   0   0  55   0  1  0
607 93552   0   0   0   0  0  0
608  40   0   0   0   0  0  1
609 6410   0   0   0  55  1  0
610 93552   0   0   0   0  0  0
611  40   0   0   0   0  0  1
612 6410   0  56   0   0  1  0
613 93552   0   0   0   0  0  0
614  40   0   0   0   0  0  1
615 6410   0   0  56   0  1  0
616 93552   0   0   0   0  0  0
617  40   0   0   0   0  0  1
618 6410   0   0   0  56  1  0
619 93552   0   0   0   0  0  0
620  40   0   0   0   0  0  1
621 6410   0  57   0   0  1  0
622 93552   0   0   0   0  0  0
623  40   0   0   0   0  0  1
624 6410   0   0  57   0  1  0
625 93552   0   0   0   0  0  0
626  40   0   0   0   0  0  1
627 6410   0   0   0  57  1  0
628 93552   0   0   0   0  0  0
629  40   0   0   0   0  0  1
630 6410   0   1   0   0  1  0
631 93552   0   0   0   0  0  0
632  40   0   0   0   0  0  1
633 6410   0   0   1   0  1  0
634 93552   0   0   0   0  0  0
635  40   0   0   0   0  0  1
636 6410   0   0   0   1  1  0
637 93552   0   0   0   0  0  0
638  40   0   0   0   0  0  1
639 6410   0  58   0   0  1  0
640 93552   0   0   0   0  0  0
641  40   0   0   0   0  0  1
642 6410   0   0  58   0  1  0
643 93552   0   0   0   0  0  0
644  40   0   0   0   0  0  1
645 6410   0   0   0  58  1  0
646 93552   0   0   0   0  0  0
647  40   0   0   0   0  0  1
648 6410   0  59   0   0  1  0
649 93552   0   0   0   0  0  0
650  40   0   0   0   0  0  1
651 6410   0   0  59   0  1  0
652 93552   0   0   0   0  0  0
653  40   0   0   0   0  0  1
654 6410   0   0   0  59  1  0
655 93552   0   0   0   0  0  0
656  40   0   0   0   0  0  1
657 6410   0  60   0   0  1  0
658 93552   0   0   0   0  0  0
659  40   0   0   0   0  0  1
660 6410   0   0  60   0  1  0
661 93552   0   0   0   0  0  0
662  40   0   0   0   0  0  1
663 6410   0   0   0  60  1  0
664 93552   0   0   0   0  0  0
665  40   0   0   0   0  0  1
666 6410   0  61   0   0  1  0
667 93552   0   0   0   0  0  0
668  40   0   0   0   0  0  1
669 6410   0   0  61   0  1  0
670 93552   0   0   0   0  0  0
671  40   0   0   0   0  0  1
672 6410   0   0   0  61  1  0
673 93552   0   0   0   0  0  0
674  40   0   0   0   0  0  1
675 6410   0  62   0   0  1  0
676 93552   0   0   0   0  0  0
677  40   0   0   0   0  0  1
678 6410   0   0  62   0  1  0
679 93552   0   0   0   0  0  0
680  40   0   0   0   0  0  1
681 6410   0   0   0  62  1  0
682 93552   0   0   0   0  0  0
683  40   0   0   0   0  0  1
684 6410   0  63   0   0  1  0
685 93552   0   0   0   0  0  0
686  40   0   0   0   0  0  1
687 6410   0   0  63   0  1  0
688 93552   0   0   0   0  0  0
689  40   0   0   0   0  0  1
690 6410   0   0   0  63  1  0
691 93552   0   0   0   0  0  0
692  40   0   0   0   0  0  1
693 6410   0  64   0   0  1  0
694 93552   0   0   0   0  0  0
695  40   0   0   0   0  0  1
696 6410   0   0  64   0  1  0
697 93552   0   0   0   0  0  0
698  40   0   0   0   0  0  1
699 6410   0   0   0  64  1  0
700 93552   0   0   0   0  0  0
701  40   0   0   0   0  0  1
702 6410   0  65   0   0  1  0
703 93552   0   0   0   0  0  0
704  40   0   0   0   0  0  1
705 6410   0   0  65   0  1  0
706 93552   0   0   0   0  0  0
707  40   0   0   0   0  0  1
708 6410   0   0   0  65  1  0
709 93552   0   0   0   0  0  0

# Format of arbitrary gradients:
#   time_shape_id of 0 means default timing (stepping with grad_raster starting at 1/2 of grad_raster)
# id amplitude amp_shape_id time_shape_id delay
# ..      Hz/m       ..         ..          us
[GRADIENTS]
18      -447048 1 2 100
19      -510912 1 3 100
20      -574776 1 4 100
21      -638640 1 5 100
22      -702504 1 6 100
23      -766368 1 7 100
24      -830232 1 8 100
25      -894096 1 9 100
26       447048 10 2 100
27       510912 10 3 100
28       574776 10 4 100
29       638640 10 5 100
30       702504 10 6 100
31       766368 10 7 100
32       830232 10 8 100
33       894096 10 9 100
34  1.27728e+06 11 0 100
35  1.27728e+06 12 0 100
36  1.27728e+06 13 0 100
37  1.27728e+06 14 0 100
38  1.27728e+06 15 0 100
39  1.27728e+06 16 0 100
40  1.27728e+06 17 0 100
41  1.27728e+06 18 0 100
42 -1.27728e+06 11 0 100
43 -1.27728e+06 12 0 100
44 -1.27728e+06 13 0 100
45 -1.27728e+06 14 0 100
46 -1.27728e+06 15 0 100
47 -1.27728e+06 16 0 100
48 -1.27728e+06 17 0 100
49 -1.27728e+06 18 0 100
50 -1.01268e+06 19 0 100
51 -1.01549e+06 20 0 100
52 -1.00825e+06 21 0 100
53 -1.11698e+06 22 0 100
54  1.03938e+06 23 0 100
55 -1.11106e+06 24 0 100
56  -1.0799e+06 25 0 100
57 -1.14837e+06 26 0 100
58  1.01268e+06 19 0 100
59  1.01549e+06 20 0 100
60  1.00825e+06 21 0 100
61  1.11698e+06 22 0 100
62 -1.03938e+06 23 0 100
63  1.11106e+06 24 0 100
64   1.0799e+06 25 0 100
65  1.14837e+06 26 0 100

# Format of trapezoid gradients:
# id amplitude rise flat fall delay
# ..      Hz/m   us   us   us    us
[TRAP]
 1            0  10    0  10 100
 2      -447048  70    0  70 100
 3      -510912  80    0  80 100
 4      -574776  90    0  90 100
 5      -638640 100    0 100 100
 6      -702504 110    0 110 100
 7      -766368 120    0 120 100
 8      -830232 130    0 130 100
 9      -894096 140    0 140 100
10       447048  70    0  70 100
11       510912  80    0  80 100
12       574776  90    0  90 100
13       638640 100    0 100 100
14       702504 110    0 110 100
15       766368 120    0 120 100
16       830232 130    0 130 100
17       894096 140    0 140 100

# Format of ADC events:
# id num dwell delay freq phase
# ..  ..    ns    us   Hz   rad
[ADC]
1 8000 8000 40 0 0

# Format of extension lists:
# id type ref next_id
# next_id of 0 terminates the list
# Extension list is followed by extension specifications
[EXTENSIONS]
1 1 1 0

# Extension specification for digital output and input triggers:
# id type channel delay (us) duration (us)
extension TRIGGERS 1
1 1 3 0 10

# Sequence Shapes
[SHAPES]

shape_id 1
num_samples 5
-0
1
-0
-1
-0

shape_id 2
num_samples 5
0
7
7
2

shape_id 3
num_samples 5
0
8
8
2

shape_id 4
num_samples 5
0
9
9
2

shape_id 5
num_samples 5
0
10
10
2

shape_id 6
num_samples 5
0
11
11
2

shape_id 7
num_samples 5
0
12
12
2

shape_id 8
num_samples 5
0
13
13
2

shape_id 9
num_samples 5
0
14
14
2

shape_id 10
num_samples 5
0
1
0
-1
0

shape_id 11
num_samples 3229
0
0.0481774
0.0481774
0
0.0481775
0.0481774
0.0481774
2
0.0481775
0.0481774
0.0481774
2
0.0481775
0.0481774
0.0481774
2
0.0481775
0.0481774
0
0
18
-0.0481774
-0.0481775
-0.0481774
-0.0481774
2
-0.0481775
-0.0481774
-0.0481774
2
-0.0481775
-0.0481774
-0.0481774
2
-0.0481775
-0.0481774
-0.0481774
0
0
0
19
-0.0001571
-0.0004712
-0.0007854
-0.0010996
-0.0014137
-0.0017278
-0.002042
-0.0023561
-0.0026702
-0.0029842
-0.0032982
-0.003612
-0.0039258
-0.0042394
-0.0045529
-0.0048659
-0.0051789
-0.0054914
-0.0058036
-0.0061151
-0.0064262
-0.0067366
-0.0070462
-0.007355
-0.0076626
-0.0079693
-0.0082746
-0.0085784
-0.0088807
-0.0091811
-0.0094797
-0.0097759
-0.0100699
-0.0103611
-0.0106495
-0.0109347
-0.0112165
-0.0114945
-0.0117686
-0.0120383
-0.0123032
-0.0125632
-0.0128178
-0.0130664
-0.0133089
-0.0135448
-0.0137735
-0.0139948
-0.0142081
-0.0144128
-0.0146086
-0.0147949
-0.0149711
-0.0151368
-0.0152912
-0.0154339
-0.0155643
-0.0156817
-0.0157856
-0.0158753
-0.0159501
-0.0160094
-0.0160525
-0.0160789
-0.0160876
-0.0160781
-0.0160498
-0.0160018
-0.0159335
-0.0158443
-0.0157332
-0.0155999
-0.0154433
-0.015263
-0.0150583
-0.0148283
-0.0145727
-0.0142905
-0.0139814
-0.0136445
-0.0132796
-0.0128857
-0.0124626
-0.0120097
-0.0115266
-0.0110128
-0.010468
-0.0098918
-0.009284
-0.0086443
-0.0079726
-0.0072687
-0.0065326
-0.0057643
-0.0049638
-0.0041316
-0.0032674
-0.002372
-0.0014455
-0.0004885
0.0004984
0.0015145
0.0025592
0.0036313
0.0047302
0.0058545
0.0070031
0.0081746
0.0093679
0.0105809
0.0118125
0.0130603
0.014323
0.015598
0.0168835
0.0181771
0.0194762
0.0207786
0.0220813
0.0233817
0.0246767
0.0259635
0.0272387
0.0284993
0.0297417
0.0309626
0.0321583
0.0333253
0.0344596
0.0355577
0.0366155
0.0376291
0.0385946
0.0395078
0.0403649
0.0411616
0.041894
0.0425579
0.0431494
0.0436645
0.0440991
0.0444496
0.0447121
0.0448829
0.0449587
0.0449358
0.0448112
0.0445819
0.0442449
0.0437977
0.043238
0.0425636
0.0417728
0.0408639
0.039836
0.0386882
0.0374199
0.0360311
0.0345223
0.0288245
0.0260302
0.0238786
0.021655
0.0193635
0.017009
0.0145962
0.0121307
0.0096181
0.0070642
0.0044756
0.0018589
-0.0007791
-0.003431
-0.0060895
-0.0087466
-0.0113944
-0.0140248
-0.0166294
-0.0191995
-0.0217265
-0.0242016
-0.0266161
-0.0289607
-0.0312269
-0.0334055
-0.0354878
-0.0374652
-0.0393289
-0.0410706
-0.0426821
-0.0441556
-0.0454835
-0.0466585
-0.0476738
-0.0485231
-0.0492004
-0.0497006
-0.0500186
-0.0501506
-0.0500928
-0.0498426
-0.049398
-0.0487577
-0.047921
-0.0468886
-0.0456615
-0.0442421
-0.0426331
-0.0408386
-0.0388637
-0.0367138
-0.0343961
-0.0319181
-0.0292885
-0.0265168
-0.0236138
-0.0205905
-0.0174593
-0.0142334
-0.0109264
-0.0075529
-0.0041282
-0.0006681
0.0028112
0.0062924
0.0097587
0.0131921
0.0165753
0.0198898
0.023118
0.0262418
0.0292434
0.0321056
0.0348109
0.0373429
0.0396856
0.0418236
0.0437425
0.0454288
0.04687
0.0480548
0.0489731
0.0496163
0.0499771
0.0500499
0.0498306
0.0493169
0.048508
0.0474054
0.0460119
0.0443328
0.0423747
0.0401464
0.0376589
0.0349246
0.0319581
0.0287755
0.0253952
0.0218367
0.0181215
0.0142722
0.0103133
0.0062699
0.0021688
-0.0019628
-0.0060966
-0.0102041
-0.0142559
-0.018223
-0.0220762
-0.0257865
-0.0293255
-0.0326657
-0.0357803
-0.0386437
-0.041232
-0.0435225
-0.0454951
-0.0471308
-0.0484138
-0.04933
-0.0498686
-0.0500212
-0.0497824
-0.0491499
-0.0481246
-0.0467104
-0.0449147
-0.0427482
-0.0402246
-0.0373612
-0.0341781
-0.0306988
-0.0269495
-0.0229592
-0.0187598
-0.0143851
-0.0098714
-0.0052565
-0.0005802
0.004117
0.0087932
0.0134064
0.0179144
0.0222748
0.0264467
0.0303896
0.0340645
0.0374348
0.0404657
0.043125
0.0453843
0.0472175
0.0486031
0.0495234
0.0499647
0.0499182
0.0493796
0.0483497
0.046834
0.0448433
0.042393
0.0395041
0.0362018
0.0325167
0.0284833
0.0241404
0.019531
0.0147014
0.009701
0.0045818
-0.0006023
-0.0057953
-0.010941
-0.0159823
-0.0208626
-0.0255263
-0.0299193
-0.0339898
-0.0376891
-0.0409714
-0.0437957
-0.0461255
-0.0479294
-0.0491816
-0.0498629
-0.04996
-0.0494668
-0.0483841
-0.0467195
-0.0444884
-0.0417126
-0.0384214
-0.0346509
-0.0304433
-0.025847
-0.0209162
-0.0157098
-0.010291
-0.0047271
0.0009126
0.0065562
0.0121309
0.0175639
0.0227834
0.0277189
0.0323031
0.0364724
0.0401679
0.0433361
0.0459299
0.0479098
0.0492435
0.0499079
0.049888
0.0491789
0.0477848
0.0457197
0.0430074
0.0396809
0.0357827
0.0313639
0.0264838
0.0212094
0.0156138
0.0097765
0.0037808
-0.0022859
-0.0083344
-0.0142745
-0.0200163
-0.0254722
-0.0305571
-0.0351911
-0.0393001
-0.0428167
-0.0456823
-0.0478474
-0.0492731
-0.0499313
-0.049806
-0.0488932
-0.0472015
-0.0447522
-0.0415788
-0.0377274
-0.0332551
-0.0282306
-0.0227318
-0.0168458
-0.0106672
-0.0042965
0.0021613
0.0085983
0.0149061
0.0209766
0.0267047
0.0319901
0.0367384
0.0408642
0.044291
0.0469541
