# Pulseq sequence file
# Created by MATLAB mr toolbox

[VERSION]
major 1
minor 4
revision 1

[DEFINITIONS]
AdcRasterTime 1e-07 
BlockDurationRaster 1e-05 
FOV 0.02 0.02 0.02 
GradientRasterTime 1e-05 
Name girf3d2_rand 
RadiofrequencyRasterTime 1e-06 
TotalDuration 1350 

# Format of blocks:
# NUM DUR RF  GX  GY  GZ  ADC  EXT
[BLOCKS]
    1 173   0   0   0   1  0  0
    2 430   1   0   0   2  0  0
    3 173   0   3   3   1  0  0
    4 224   0   0   0   0  0  0
    5 6408   0   0   0   4  1  0
    6 100   0   0   0   0  0  0
    7  18   0   6   6   5  0  0
    8 12474   0   0   0   0  0  0
    9 173   0   0   0   1  0  0
   10 430   2   0   0   2  0  0
   11 173   0   3   3   1  0  0
   12 224   0   0   0   0  0  0
   13 6408   0   0   0   4  1  0
   14 100   0   0   0   0  0  0
   15  18   0   6   6   5  0  0
   16 12474   0   0   0   0  0  0
   17 173   0   0   0   1  0  0
   18 430   3   0   0   2  0  0
   19 173   0   3   3   1  0  0
   20 224   0   0   0   0  0  0
   21 6408   0   0   0   4  1  0
   22 100   0   0   0   0  0  0
   23  18   0   6   6   5  0  0
   24 12474   0   0   0   0  0  0
   25 173   0   0   0   1  0  0
   26 430   4   0   0   2  0  0
   27 173   0   3   3   1  0  0
   28 224   0   0   0   0  0  0
   29 6408   0   0   0   4  1  0
   30 100   0   0   0   0  0  0
   31  18   0   6   6   5  0  0
   32 12474   0   0   0   0  0  0
   33 173   0   0   0   1  0  0
   34 430   5   0   0   2  0  0
   35 173   0   3   3   1  0  0
   36 224   0   0   0   0  0  0
   37 6408   0   0   0   4  1  0
   38 100   0   0   0   0  0  0
   39  18   0   6   6   5  0  0
   40 12474   0   0   0   0  0  0
   41 173   0   1   0   0  0  0
   42 430   1   2   0   0  0  0
   43 173   0   1   3   3  0  0
   44 224   0   0   0   0  0  0
   45 6408   0   4   0   0  1  0
   46 100   0   0   0   0  0  0
   47  18   0   5   6   6  0  0
   48 12474   0   0   0   0  0  0
   49 173   0   1   0   0  0  0
   50 430   2   2   0   0  0  0
   51 173   0   1   3   3  0  0
   52 224   0   0   0   0  0  0
   53 6408   0   4   0   0  1  0
   54 100   0   0   0   0  0  0
   55  18   0   5   6   6  0  0
   56 12474   0   0   0   0  0  0
   57 173   0   1   0   0  0  0
   58 430   3   2   0   0  0  0
   59 173   0   1   3   3  0  0
   60 224   0   0   0   0  0  0
   61 6408   0   4   0   0  1  0
   62 100   0   0   0   0  0  0
   63  18   0   5   6   6  0  0
   64 12474   0   0   0   0  0  0
   65 173   0   1   0   0  0  0
   66 430   4   2   0   0  0  0
   67 173   0   1   3   3  0  0
   68 224   0   0   0   0  0  0
   69 6408   0   4   0   0  1  0
   70 100   0   0   0   0  0  0
   71  18   0   5   6   6  0  0
   72 12474   0   0   0   0  0  0
   73 173   0   1   0   0  0  0
   74 430   5   2   0   0  0  0
   75 173   0   1   3   3  0  0
   76 224   0   0   0   0  0  0
   77 6408   0   4   0   0  1  0
   78 100   0   0   0   0  0  0
   79  18   0   5   6   6  0  0
   80 12474   0   0   0   0  0  0
   81 173   0   0   1   0  0  0
   82 430   1   0   2   0  0  0
   83 173   0   3   1   3  0  0
   84 224   0   0   0   0  0  0
   85 6408   0   0   4   0  1  0
   86 100   0   0   0   0  0  0
   87  18   0   6   5   6  0  0
   88 12474   0   0   0   0  0  0
   89 173   0   0   1   0  0  0
   90 430   2   0   2   0  0  0
   91 173   0   3   1   3  0  0
   92 224   0   0   0   0  0  0
   93 6408   0   0   4   0  1  0
   94 100   0   0   0   0  0  0
   95  18   0   6   5   6  0  0
   96 12474   0   0   0   0  0  0
   97 173   0   0   1   0  0  0
   98 430   3   0   2   0  0  0
   99 173   0   3   1   3  0  0
  100 224   0   0   0   0  0  0
  101 6408   0   0   4   0  1  0
  102 100   0   0   0   0  0  0
  103  18   0   6   5   6  0  0
  104 12474   0   0   0   0  0  0
  105 173   0   0   1   0  0  0
  106 430   4   0   2   0  0  0
  107 173   0   3   1   3  0  0
  108 224   0   0   0   0  0  0
  109 6408   0   0   4   0  1  0
  110 100   0   0   0   0  0  0
  111  18   0   6   5   6  0  0
  112 12474   0   0   0   0  0  0
  113 173   0   0   1   0  0  0
  114 430   5   0   2   0  0  0
  115 173   0   3   1   3  0  0
  116 224   0   0   0   0  0  0
  117 6408   0   0   4   0  1  0
  118 100   0   0   0   0  0  0
  119  18   0   6   5   6  0  0
  120 12474   0   0   0   0  0  0
  121 173   0   0   0   1  0  0
  122 430   1   0   0   2  0  0
  123 173   0   3   3   1  0  0
  124 224   0   0   0   0  0  0
  125 6408   0   0   0   7  1  0
  126 100   0   0   0   0  0  0
  127  42   0   6   6   8  0  0
  128 12450   0   0   0   0  0  0
  129 173   0   0   0   1  0  0
  130 430   2   0   0   2  0  0
  131 173   0   3   3   1  0  0
  132 224   0   0   0   0  0  0
  133 6408   0   0   0   7  1  0
  134 100   0   0   0   0  0  0
  135  42   0   6   6   8  0  0
  136 12450   0   0   0   0  0  0
  137 173   0   0   0   1  0  0
  138 430   3   0   0   2  0  0
  139 173   0   3   3   1  0  0
  140 224   0   0   0   0  0  0
  141 6408   0   0   0   7  1  0
  142 100   0   0   0   0  0  0
  143  42   0   6   6   8  0  0
  144 12450   0   0   0   0  0  0
  145 173   0   0   0   1  0  0
  146 430   4   0   0   2  0  0
  147 173   0   3   3   1  0  0
  148 224   0   0   0   0  0  0
  149 6408   0   0   0   7  1  0
  150 100   0   0   0   0  0  0
  151  42   0   6   6   8  0  0
  152 12450   0   0   0   0  0  0
  153 173   0   0   0   1  0  0
  154 430   5   0   0   2  0  0
  155 173   0   3   3   1  0  0
  156 224   0   0   0   0  0  0
  157 6408   0   0   0   7  1  0
  158 100   0   0   0   0  0  0
  159  42   0   6   6   8  0  0
  160 12450   0   0   0   0  0  0
  161 173   0   1   0   0  0  0
  162 430   1   2   0   0  0  0
  163 173   0   1   3   3  0  0
  164 224   0   0   0   0  0  0
  165 6408   0   7   0   0  1  0
  166 100   0   0   0   0  0  0
  167  42   0   8   6   6  0  0
  168 12450   0   0   0   0  0  0
  169 173   0   1   0   0  0  0
  170 430   2   2   0   0  0  0
  171 173   0   1   3   3  0  0
  172 224   0   0   0   0  0  0
  173 6408   0   7   0   0  1  0
  174 100   0   0   0   0  0  0
  175  42   0   8   6   6  0  0
  176 12450   0   0   0   0  0  0
  177 173   0   1   0   0  0  0
  178 430   3   2   0   0  0  0
  179 173   0   1   3   3  0  0
  180 224   0   0   0   0  0  0
  181 6408   0   7   0   0  1  0
  182 100   0   0   0   0  0  0
  183  42   0   8   6   6  0  0
  184 12450   0   0   0   0  0  0
  185 173   0   1   0   0  0  0
  186 430   4   2   0   0  0  0
  187 173   0   1   3   3  0  0
  188 224   0   0   0   0  0  0
  189 6408   0   7   0   0  1  0
  190 100   0   0   0   0  0  0
  191  42   0   8   6   6  0  0
  192 12450   0   0   0   0  0  0
  193 173   0   1   0   0  0  0
  194 430   5   2   0   0  0  0
  195 173   0   1   3   3  0  0
  196 224   0   0   0   0  0  0
  197 6408   0   7   0   0  1  0
  198 100   0   0   0   0  0  0
  199  42   0   8   6   6  0  0
  200 12450   0   0   0   0  0  0
  201 173   0   0   1   0  0  0
  202 430   1   0   2   0  0  0
  203 173   0   3   1   3  0  0
  204 224   0   0   0   0  0  0
  205 6408   0   0   7   0  1  0
  206 100   0   0   0   0  0  0
  207  42   0   6   8   6  0  0
  208 12450   0   0   0   0  0  0
  209 173   0   0   1   0  0  0
  210 430   2   0   2   0  0  0
  211 173   0   3   1   3  0  0
  212 224   0   0   0   0  0  0
  213 6408   0   0   7   0  1  0
  214 100   0   0   0   0  0  0
  215  42   0   6   8   6  0  0
  216 12450   0   0   0   0  0  0
  217 173   0   0   1   0  0  0
  218 430   3   0   2   0  0  0
  219 173   0   3   1   3  0  0
  220 224   0   0   0   0  0  0
  221 6408   0   0   7   0  1  0
  222 100   0   0   0   0  0  0
  223  42   0   6   8   6  0  0
  224 12450   0   0   0   0  0  0
  225 173   0   0   1   0  0  0
  226 430   4   0   2   0  0  0
  227 173   0   3   1   3  0  0
  228 224   0   0   0   0  0  0
  229 6408   0   0   7   0  1  0
  230 100   0   0   0   0  0  0
  231  42   0   6   8   6  0  0
  232 12450   0   0   0   0  0  0
  233 173   0   0   1   0  0  0
  234 430   5   0   2   0  0  0
  235 173   0   3   1   3  0  0
  236 224   0   0   0   0  0  0
  237 6408   0   0   7   0  1  0
  238 100   0   0   0   0  0  0
  239  42   0   6   8   6  0  0
  240 12450   0   0   0   0  0  0
  241 173   0   0   0   1  0  0
  242 430   1   0   0   2  0  0
  243 173   0   3   3   1  0  0
  244 224   0   0   0   0  0  0
  245 6408   0   0   0   9  1  0
  246 100   0   0   0   0  0  0
  247  36   0   6   6  10  0  0
  248 12456   0   0   0   0  0  0
  249 173   0   0   0   1  0  0
  250 430   2   0   0   2  0  0
  251 173   0   3   3   1  0  0
  252 224   0   0   0   0  0  0
  253 6408   0   0   0   9  1  0
  254 100   0   0   0   0  0  0
  255  36   0   6   6  10  0  0
  256 12456   0   0   0   0  0  0
  257 173   0   0   0   1  0  0
  258 430   3   0   0   2  0  0
  259 173   0   3   3   1  0  0
  260 224   0   0   0   0  0  0
  261 6408   0   0   0   9  1  0
  262 100   0   0   0   0  0  0
  263  36   0   6   6  10  0  0
  264 12456   0   0   0   0  0  0
  265 173   0   0   0   1  0  0
  266 430   4   0   0   2  0  0
  267 173   0   3   3   1  0  0
  268 224   0   0   0   0  0  0
  269 6408   0   0   0   9  1  0
  270 100   0   0   0   0  0  0
  271  36   0   6   6  10  0  0
  272 12456   0   0   0   0  0  0
  273 173   0   0   0   1  0  0
  274 430   5   0   0   2  0  0
  275 173   0   3   3   1  0  0
  276 224   0   0   0   0  0  0
  277 6408   0   0   0   9  1  0
  278 100   0   0   0   0  0  0
  279  36   0   6   6  10  0  0
  280 12456   0   0   0   0  0  0
  281 173   0   1   0   0  0  0
  282 430   1   2   0   0  0  0
  283 173   0   1   3   3  0  0
  284 224   0   0   0   0  0  0
  285 6408   0   9   0   0  1  0
  286 100   0   0   0   0  0  0
  287  36   0  10   6   6  0  0
  288 12456   0   0   0   0  0  0
  289 173   0   1   0   0  0  0
  290 430   2   2   0   0  0  0
  291 173   0   1   3   3  0  0
  292 224   0   0   0   0  0  0
  293 6408   0   9   0   0  1  0
  294 100   0   0   0   0  0  0
  295  36   0  10   6   6  0  0
  296 12456   0   0   0   0  0  0
  297 173   0   1   0   0  0  0
  298 430   3   2   0   0  0  0
[RF]
1      84.1133 1 2 0 150 -20000 0
2      84.1133 1 2 0 150 -10000 0
3      84.1133 1 2 0 150 0 0
4      84.1133 1 2 0 150 10000 0
5      84.1133 1 2 0 150 20000 0

# Format of arbitrary gradients:
#   time_shape_id of 0 means default timing (stepping with grad_raster starting at 1/2 of grad_raster)
# id amplitude amp_shape_id time_shape_id delay
# ..      Hz/m       ..         ..          us
[GRADIENTS]
7 -1.01268e+06 3 0 4000
9 -1.01549e+06 4 0 4000
11 -1.00825e+06 5 0 4000
13 -1.11698e+06 6 0 4000
15  1.03938e+06 7 0 4000
17 -1.11106e+06 8 0 4000
19  -1.0799e+06 9 0 4000
21 -1.14837e+06 10 0 4000
23  1.01268e+06 3 0 4000
25  1.01549e+06 4 0 4000
27  1.00825e+06 5 0 4000
29  1.11698e+06 6 0 4000
31 -1.03938e+06 7 0 4000
33  1.11106e+06 8 0 4000
35   1.0799e+06 9 0 4000
37  1.14837e+06 10 0 4000

# Format of trapezoid gradients:
# id amplitude rise flat fall delay
# ..      Hz/m   us   us   us    us
[TRAP]
 1 -1.35621e+06 200 1330 200   0
 2        1e+06 150 4000 150   0
 3      -111111  20   40  20 100
 4            0  10    0  10 4000
 5            0  10    0  10   0
 6       111111  20   40  20 100
 8 -1.35842e+06 200   20 200   0
10  1.19221e+06 180    0 180   0
12       882393 130    0 130   0
14       839078 140    0 140   0
16      -669067 110    0 110   0
18       590894 100    0 100   0
20       696360 120    0 120   0
22       747160 120    0 120   0
24  1.35842e+06 200   20 200   0
26 -1.19221e+06 180    0 180   0
28      -882393 130    0 130   0
30      -839078 140    0 140   0
32       669067 110    0 110   0
34      -590894 100    0 100   0
36      -696360 120    0 120   0
38      -747160 120    0 120   0
39       -47619  10   60  10 100
40        47619  10   60  10 100
41            0  10   60  10 100
42           -0  10   60  10 100

# Format of ADC events:
# id num dwell delay freq phase
# ..  ..    ns    us   Hz   rad
[ADC]
1 8000 8000 40 0 0

# Sequence Shapes
[SHAPES]

shape_id 1
num_samples 4000
5.00125401e-05
0.000150112942
0.000250314312
0.000350617294
0.000451022535
0.000551530685
0.000652142393
0.000752858309
0.000853679084
0.000954605371
0.00105563782
0.00115677709
0.00125802384
0.00135937872
0.00146084238
0.00156241549
0.0016640987
0.00176589267
0.00186779806
0.00196981554
0.00207194575
0.00217418936
0.00227654703
0.00237901943
0.00248160722
0.00258431105
0.00268713159
0.0027900695
0.00289312545
0.00299630009
0.00309959409
0.00320300812
0.00330654283
0.00341019889
0.00351397696
0.00361787771
0.00372190178
0.00382604986
0.00393032259
0.00403472064
0.00413924467
0.00424389534
0.00434867331
0.00445357924
0.00455861379
0.00466377761
0.00476907137
0.00487449572
0.00498005131
0.0050857388
0.00519155884
0.00529751209
0.00540359921
0.00550982083
0.00561617761
0.00572267021
0.00582929926
0.00593606541
0.00604296932
0.00615001162
0.00625719296
0.00636451397
0.0064719753
0.00657957759
0.00668732148
0.00679520759
0.00690323656
0.00701140903
0.00711972562
0.00722818697
0.0073367937
0.00744554643
0.00755444579
0.0076634924
0.00777268688
0.00788202984
0.00799152191
0.00810116368
0.00821095578
0.00832089881
0.00843099337
0.00854124008
0.00865163952
0.00876219231
0.00887289903
0.00898376028
0.00909477666
0.00920594874
0.00931727712
0.00942876237
0.00954040509
0.00965220583
0.00976416519
0.00987628373
0.00998856202
0.0101010006
0.0102136001
0.010326361
0.0104392839
0.0105523694
0.0106656179
0.0107790301
0.0108926065
0.0110063476
0.011120254
0.0112343261
0.0113485646
0.0114629699
0.0115775426
0.0116922831
0.0118071921
0.01192227
0.0120375172
0.0121529345
0.0122685221
0.0123842806
0.0125002105
0.0126163123
0.0127325865
0.0128490336
0.0129656539
0.0130824481
0.0131994164
0.0133165596
0.0134338778
0.0135513717
0.0136690417
0.0137868882
0.0139049116
0.0140231124
0.014141491
0.0142600478
0.0143787833
0.0144976979
0.0146167919
0.0147360658
0.01485552
0.0149751548
0.0150949707
0.0152149681
0.0153351472
0.0154555086
0.0155760525
0.0156967793
0.0158176894
0.0159387831
0.0160600608
0.0161815228
0.0163031694
0.016425001
0.0165470179
0.0166692204
0.0167916088
0.0169141835
0.0170369446
0.0171598926
0.0172830277
0.0174063502
0.0175298603
0.0176535584
0.0177774447
0.0179015194
0.0180257828
0.0181502351
0.0182748766
0.0183997075
0.0185247281
0.0186499385
0.018775339
0.0189009297
0.0190267109
0.0191526827
0.0192788454
0.019405199
0.0195317439
0.0196584801
0.0197854078
0.0199125271
0.0200398383
0.0201673413
0.0202950365
0.0204229237
0.0205510033
0.0206792753
0.0208077398
0.0209363968
0.0210652465
0.0211942889
0.0213235242
0.0214529523
0.0215825734
0.0217123874
0.0218423944
0.0219725945
0.0221029876
0.0222335738
0.0223643531
0.0224953254
0.0226264908
0.0227578493
0.0228894008
0.0230211453
0.0231530827
0.023285213
0.0234175362
0.0235500521
0.0236827608
0.023815662
0.0239487558
0.0240820419
0.0242155204
0.0243491911
0.0244830538
0.0246171085
0.024751355
0.024885793
0.0250204226
0.0251552434
0.0252902554
0.0254254583
0.025560852
0.0256964361
0.0258322106
0.0259681752
0.0261043296
0.0262406736
0.026377207
0.0265139295
0.0266508408
0.0267879406
0.0269252287
0.0270627048
0.0272003685
0.0273382196
0.0274762576
0.0276144823
0.0277528933
0.0278914903
0.0280302729
0.0281692407
0.0283083933
0.0284477304
0.0285872515
0.0287269562
0.0288668441
0.0290069147
0.0291471676
0.0292876024
0.0294282186
0.0295690157
0.0297099932
0.0298511507
0.0299924875
0.0301340033
0.0302756974
0.0304175694
0.0305596186
0.0307018446
0.0308442467
0.0309868244
0.0311295771
0.0312725042
0.031415605
0.031558879
0.0317023255
0.0318459439
0.0319897335
0.0321336936
0.0322778236
0.0324221228
0.0325665905
0.032711226
0.0328560285
0.0330009973
0.0331461318
0.033291431
0.0334368943
0.0335825209
0.03372831
0.0338742608
0.0340203724
0.0341666442
0.0343130752
0.0344596645
0.0346064114
0.034753315
0.0349003743
0.0350475885
0.0351949568
0.0353424781
0.0354901516
0.0356379762
0.0357859512
0.0359340755
0.0360823481
0.036230768
0.0363793343
0.036528046
0.036676902
0.0368259013
0.0369750429
0.0371243257
0.0372737486
0.0374233105
0.0375730104
0.0377228472
0.0378728198
0.0380229269
0.0381731675
0.0383235405
0.0384740446
0.0386246788
0.0387754417
0.0389263322
0.0390773491
0.0392284912
0.0393797572
0.0395311458
0.0396826559
0.0398342861
0.0399860352
0.0401379018
0.0402898846
0.0404419824
0.0405941937
0.0407465173
0.0408989517
0.0410514956
0.0412041476
0.0413569063
0.0415097703
0.0416627381
0.0418158084
0.0419689796
0.0421222503
0.042275619
0.0424290843
0.0425826446
0.0427362985
0.0428900443
0.0430438805
0.0431978057
0.0433518181
0.0435059164
0.0436600987
0.0438143636
0.0439687094
0.0441231346
0.0442776373
0.0444322161
0.0445868691
0.0447415948
0.0448963914
0.0450512572
0.0452061906
0.0453611896
0.0455162527
0.0456713781
0.0458265639
0.0459818083
0.0461371097
0.0462924661
0.0464478757
0.0466033367
0.0467588472
0.0469144053
0.0470700092
0.047225657
0.0473813468
0.0475370766
0.0476928445
0.0478486485
0.0480044867
0.0481603572
0.0483162578
0.0484721867
0.0486281417
0.0487841209
0.0489401222
0.0490961436
0.049252183
0.0494082383
0.0495643073
0.0497203881
0.0498764784
0.0500325762
0.0501886792
0.0503447853
0.0505008924
0.0506569981
0.0508131004
0.050969197
0.0511252857
0.0512813642
0.0514374302
0.0515934816
0.0517495159
0.0519055309
0.0520615243
0.0522174937
0.0523734369
0.0525293513
0.0526852348
0.0528410848
0.0529968991
0.0531526751
0.0533084104
0.0534641027
0.0536197494
0.0537753482
0.0539308964
0.0540863917
0.0542418315
0.0543972133
0.0545525345
0.0547077927
0.0548629852
0.0550181094
0.0551731629
0.0553281429
0.0554830469
0.0556378723
0.0557926163
0.0559472764
0.0561018498
0.0562563339
0.056410726
0.0565650234
0.0567192233
0.056873323
0.0570273197
0.0571812108
0.0573349933
0.0574886646
0.0576422217
0.057795662
0.0579489825
0.0581021804
0.0582552528
0.0584081969
0.0585610098
0.0587136886
0.0588662303
0.059018632
0.0591708909
0.0593230038
0.059474968
0.0596267803
0.0597784378
0.0599299374
0.0600812763
0.0602324512
0.0603834592
0.0605342972
0.0606849621
0.0608354509
0.0609857604
0.0611358875
0.0612858291
0.061435582
0.0615851432
0.0617345093
0.0618836772
0.0620326438
0.0621814059
0.0623299601
0.0624783033
0.0626264322
0.0627743435
0.062922034
0.0630695005
0.0632167395
0.0633637477
0.063510522
0.0636570588
0.0638033548
0.0639494068
0.0640952112
0.0642407648
0.064386064
0.0645311056
0.0646758859
0.0648204017
0.0649646495
0.0651086257
0.0652523269
0.0653957496
0.0655388902
0.0656817454
0.0658243115
0.0659665849
0.0661085622
0.0662502397
0.0663916139
0.0665326812
0.0666734379
0.0668138804
0.0669540052
0.0670938085
0.0672332867
0.0673724361
0.067511253
0.0676497338
0.0677878747
0.067925672
0.0680631219
0.0682002208
0.0683369648
0.0684733502
0.0686093733
0.0687450301
0.0688803169
0.0690152299
0.0691497653
0.0692839191
0.0694176876
0.0695510669
0.0696840531
0.0698166423
0.0699488306
0.0700806141
0.0702119888
0.0703429509
0.0704734963
0.0706036211
0.0707333214
0.0708625931
0.0709914323
0.0711198349
0.0712477969
0.0713753143
0.071502383
0.0716289991
0.0717551583
0.0718808567
0.0720060902
0.0721308546
0.0722551458
0.0723789598
0.0725022924
0.0726251394
0.0727474967
0.0728693601
0.0729907254
0.0731115885
0.0732319452
0.0733517912
0.0734711223
0.0735899343
0.073708223
0.0738259841
0.0739432132
0.0740599063
0.0741760589
0.0742916668
0.0744067256
0.0745212311
0.074635179
0.0747485648
0.0748613842
0.074973633
0.0750853066
0.0751964008
0.0753069111
0.0754168332
0.0755261627
0.075634895
0.0757430259
0.0758505508
0.0759574653
0.0760637649
0.0761694453
0.0762745019
0.0763789302
0.0764827257
0.0765858839
0.0766884004
0.0767902705
0.0768914898
0.0769920537
0.0770919576
0.0771911971
0.0772897674
0.0773876641
0.0774848826
0.0775814182
0.0776772664
0.0777724225
0.077866882
0.0779606401
0.0780536922
0.0781460338
0.07823766
0.0783285664
0.0784187481
0.0785082005
0.078596919
0.0786848987
0.0787721351
0.0788586233
0.0789443587
0.0790293365
0.0791135521
0.0791970005
0.0792796772
0.0793615772
0.0794426959
0.0795230284
0.0796025701
0.079681316
0.0797592613
0.0798364014
0.0799127313
0.0799882462
0.0800629413
0.0801368117
0.0802098527
0.0802820592
0.0803534266
0.0804239499
0.0804936242
0.0805624447
0.0806304065
0.0806975046
0.0807637343
0.0808290904
0.0808935683
0.0809571628
0.0810198692
0.0810816824
0.0811425976
0.0812026097
0.0812617138
0.0813199051
0.0813771784
0.0814335288
0.0814889514
0.0815434412
0.0815969932
0.0816496023
0.0817012636
0.0817519722
0.0818017229
0.0818505107
0.0818983307
0.0819451778
0.081991047
0.0820359332
0.0820798314
0.0821227366
0.0821646437
0.0822055476
0.0822454433
0.0822843258
0.0823221899
0.0823590305
0.0823948427
0.0824296212
0.0824633611
0.0824960573
0.0825277045
0.0825582978
0.082587832
0.0826163021
0.0826437028
0.0826700292
0.082695276
0.0827194382
0.0827425106
0.0827644881
0.0827853656
0.0828051379
0.0828237998
0.0828413463
0.0828577722
0.0828730724
0.0828872416
0.0829002748
0.0829121668
0.0829229123
0.0829325063
0.0829409436
0.0829482191
0.0829543274
0.0829592636
0.0829630223
0.0829655985
0.0829669869
0.0829671824
0.0829661797
0.0829639737
0.0829605593
0.0829559311
0.0829500841
0.082943013
0.0829347126
0.0829251778
0.0829144033
0.082902384
0.0828891146
0.0828745899
0.0828588049
0.0828417541
0.0828234325
0.0828038349
0.082782956
0.0827607906
0.0827373335
0.0827125796
0.0826865236
0.0826591603
0.0826304845
0.0826004911
0.0825691747
0.0825365302
0.0825025524
0.0824672361
0.082430576
0.0823925671
0.082353204
0.0823124815
0.0822703946
0.0822269379
0.0821821062
0.0821358944
0.0820882973
0.0820393097
0.0819889263
0.081937142
0.0818839516
0.0818293499
0.0817733317
0.0817158918
0.081657025
0.0815967262
0.0815349901
0.0814718116
0.0814071855
0.0813411067
0.0812735699
0.0812045699
0.0811341017
0.08106216
0.0809887397
0.0809138355
0.0808374425
0.0807595553
0.0806801689
0.0805992781
0.0805168778
0.0804329627
0.0803475279
0.080260568
0.0801720781
0.0800820529
0.0799904873
0.0798973763
0.0798027147
0.0797064974
0.0796087192
0.0795093752
0.0794084601
0.0793059689
0.0792018964
0.0790962377
0.0789889876
0.078880141
0.0787696928
0.0786576381
0.0785439716
0.0784286885
0.0783117835
0.0781932518
0.0780730881
0.0779512875
0.077827845
0.0777027555
0.077576014
0.0774476155
0.077317555
0.0771858274
0.0770524279
0.0769173513
0.0767805927
0.0766421472
0.0765020097
0.0763601752
0.076216639
0.0760713959
0.075924441
0.0757757694
0.0756253762
0.0754732564
0.0753194052
0.0751638176
0.0750064886
0.0748474135
0.0746865873
0.0745240052
0.0743596623
0.0741935536
0.0740256745
0.0738560199
0.0736845851
0.0735113653
0.0733363555
0.0731595511
0.0729809472
0.072800539
0.0726183216
0.0724342905
0.0722484406
0.0720607674
0.071871266
0.0716799317
0.0714867598
0.0712917455
0.0710948842
0.070896171
0.0706956014
0.0704931706
0.070288874
0.0700827069
0.0698746646
0.0696647425
0.0694529359
0.0692392403
0.0690236509
0.0688061633
0.0685867728
0.0683654748
0.0681422647
0.067917138
0.0676900902
0.0674611166
0.0672302128
0.0669973743
0.0667625965
0.0665258749
0.0662872051
0.0660465826
0.0658040029
0.0655594616
0.0653129542
0.0650644763
0.0648140235
0.0645615915
0.0643071757
0.0640507718
0.0637923756
0.0635319825
0.0632695883
0.0630051887
0.0627387793
0.0624703559
0.0621999141
0.0619274497
0.0616529584
0.061376436
0.0610978782
0.0608172808
0.0605346397
0.0602499505
0.0599632092
0.0596744115
0.0593835534
0.0590906306
0.0587956391
0.0584985748
0.0581994334
0.0578982111
0.0575949036
0.0572895071
0.0569820173
0.0566724303
0.0563607421
0.0560469486
0.055731046
0.0554130303
0.0550928974
0.0547706435
0.0544462647
0.054119757
0.0537911166
0.0534603396
0.0531274221
0.0527923604
0.0524551505
0.0521157887
0.0517742711
0.0514305941
0.0510847539
0.0507367467
0.0503865687
0.0500342164
0.0496796859
0.0493229737
0.048964076
0.0486029892
0.0482397097
0.0478742339
0.0475065582
0.0471366791
0.0467645929
0.0463902961
0.0460137853
0.0456350569
0.0452541074
0.0448709334
0.0444855314
0.0440978979
0.0437080297
0.0433159232
0.0429215751
0.0425249821
0.0421261408
0.0417250478
0.0413217
0.0409160939
0.0405082264
0.0400980941
0.039685694
0.0392710226
0.038854077
0.0384348538
0.03801335
0.0375895624
0.037163488
0.0367351235
0.036304466
0.0358715123
0.0354362596
0.0349987046
0.0345588446
0.0341166764
0.0336721971
0.0332254038
0.0327762936
0.0323248636
0.031871111
0.0314150328
0.0309566262
0.0304958885
0.0300328168
0.0295674084
0.0290996606
0.0286295705
0.0281571356
0.0276823531
0.0272052203
0.0267257346
0.0262438935
0.0257596942
0.0252731343
0.0247842112
0.0242929223
0.0237992651
0.0233032372
0.0228048361
0.0223040592
0.0218009043
0.021295369
0.0207874507
0.0202771472
0.0197644562
0.0192493753
0.0187319023
0.0182120348
0.0176897707
0.0171651078
0.0166380437
0.0161085764
0.0155767037
0.0150424235
0.0145057337
0.0139666322
0.0134251169
0.0128811858
0.0123348369
0.0117860682
0.0112348778
0.0106812637
0.010125224
0.00956675678
0.0090058602
0.00844253243
0.00787677163
0.00730857601
0.00673794381
0.00616487328
0.00558936269
0.00501141035
0.00443101459
0.00384817375
0.00326288622
0.0026751504
0.00208496472
0.00149232762
0.000897237583
0.000299693111
0.00030030727
0.000902765009
0.00150768153
0.00211505822
0.00272489647
0.00333719761
0.00395196297
0.00456919385
0.0051888915
0.00581105719
0.00643569212
0.00706279749
0.00769237447
0.00832442419
0.00895894777
0.00959594631
0.0102354209
0.0108773724
0.0115218021
0.0121687108
0.0128180995
0.0134699691
0.0141243206
0.0147811548
0.0154404725
0.0161022746
0.0167665619
0.0174333352
0.0181025951
0.0187743425
0.019448578
0.0201253023
0.0208045159
0.0214862196
0.0221704138
0.0228570992
0.0235462763
0.0242379456
0.0249321075
0.0256287625
0.0263279109
0.0270295533
0.02773369
0.0284403212
0.0291494473
0.0298610686
0.0305751853
0.0312917976
0.0320109058
0.03273251
0.0334566103
0.0341832069
0.0349122998
0.0356438891
0.0363779748
0.0371145569
0.0378536353
0.0385952101
0.0393392811
0.0400858482
0.0408349112
0.0415864701
0.0423405245
0.0430970742
0.043856119
0.0446176587
0.0453816928
0.046148221
0.046917243
0.0476887583
0.0484627665
0.0492392672
0.0500182598
0.0507997438
0.0515837187
0.0523701839
0.0531591388
0.0539505827
0.054744515
0.0555409349
0.0563398419
0.0571412349
0.0579451134
0.0587514765
0.0595603233
0.0603716529
0.0611854645
0.0620017572
0.0628205298
0.0636417815
0.0644655113
0.065291718
0.0661204005
0.0669515579
0.0677851889
0.0686212923
0.069459867
0.0703009116
0.071144425
0.0719904058
0.0728388528
0.0736897645
0.0745431396
0.0753989766
0.0762572741
0.0771180306
0.0779812447
0.0788469147
0.0797150392
0.0805856164
0.0814586448
0.0823341227
0.0832120485
0.0840924203
0.0849752365
0.0858604952
0.0867481947
0.0876383331
0.0885309085
0.089425919
0.0903233627
0.0912232375
0.0921255416
0.0930302729
0.0939374293
0.0948470087
0.095759009
0.096673428
0.0975902636
0.0985095135
0.0994311755
0.100355247
0.101281727
0.102210611
0.103141898
0.104075586
0.105011672
0.105950153
0.106891027
0.107834292
0.108779944
0.109727982
0.110678402
0.111631203
0.112586381
0.113543933
0.114503858
0.115466151
0.116430811
0.117397834
0.118367218
0.11933896
0.120313056
0.121289504
0.122268301
0.123249444
0.124232929
0.125218754
0.126206916
0.12719741
0.128190235
0.129185387
0.130182863
0.131182659
0.132184772
0.133189198
0.134195936
0.13520498
0.136216327
0.137229975
0.138245919
0.139264156
0.140284683
0.141307496
0.142332591
0.143359964
0.144389612
0.145421532
0.146455719
0.147492169
0.148530879
0.149571846
0.150615064
0.151660531
0.152708241
0.153758192
0.15481038
0.155864799
0.156921447
0.157980319
0.15904141
0.160104718
0.161170237
0.162237963
0.163307893
0.164380021
0.165454344
0.166530856
0.167609555
0.168690435
0.169773492
0.170858721
0.171946119
0.173035679
0.174127399
0.175221272
0.176317295
0.177415464
0.178515772
0.179618216
0.18072279
0.181829491
0.182938313
0.18404925
0.1851623
0.186277456
0.187394713
0.188514067
0.189635513
0.190759045
0.191884658
0.193012348
0.194142109
0.195273936
0.196407825
0.197543768
0.198681762
0.199821802
0.200963881
0.202107994
0.203254137
0.204402303
0.205552488
0.206704685
0.20785889
0.209015096
0.210173299
0.211333492
0.21249567
0.213659828
0.214825959
0.215994058
0.217164119
0.218336137
0.219510105
0.220686018
0.22186387
0.223043655
0.224225367
0.225409001
0.226594549
0.227782007
0.228971367
0.230162625
0.231355773
0.232550807
0.233747719
0.234946503
0.236147154
0.237349664
0.238554028
0.23976024
0.240968292
0.242178179
0.243389895
0.244603432
0.245818784
0.247035946
0.248254909
0.249475669
0.250698217
0.251922548
0.253148655
0.254376532
0.255606171
0.256837565
0.258070709
0.259305595
0.260542217
0.261780567
0.26302064
0.264262427
0.265505922
0.266751118
0.267998008
0.269246585
0.270496841
0.271748771
0.273002367
0.274257621
0.275514527
0.276773077
0.278033265
0.279295082
0.280558522
0.281823577
0.28309024
0.284358503
0.28562836
0.286899803
0.288172824
0.289447416
0.290723572
0.292001283
0.293280543
0.294561344
0.295843678
0.297127537
0.298412915
0.299699802
0.300988193
0.302278078
0.30356945
0.304862301
0.306156624
0.30745241
0.308749652
0.310048342
0.311348471
0.312650033
0.313953018
0.31525742
0.316563229
0.317870438
0.319179039
0.320489024
0.321800384
0.323113112
0.324427199
0.325742636
0.327059417
0.328377532
0.329696973
0.331017732
0.3323398
0.33366317
0.334987832
0.336313779
0.337641001
0.338969491
0.34029924
0.34163024
0.342962481
0.344295955
0.345630655
0.34696657
0.348303693
0.349642014
0.350981526
0.352322219
0.353664085
0.355007114
0.356351299
0.35769663
0.359043098
0.360390695
0.361739412
0.363089239
0.364440168
0.365792191
0.367145297
0.368499478
0.369854725
0.371211029
0.37256838
0.373926771
0.375286191
0.376646631
0.378008083
0.379370537
0.380733983
0.382098414
0.383463818
0.384830188
0.386197514
0.387565786
0.388934996
0.390305133
0.391676189
0.393048153
0.394421018
0.395794772
0.397169407
0.398544914
0.399921282
0.401298502
0.402676565
0.404055461
0.40543518
0.406815713
0.40819705
0.409579182
0.410962099
0.412345791
0.413730248
0.41511546
0.416501419
0.417888114
0.419275535
0.420663673
0.422052517
0.423442058
0.424832286
0.426223192
0.427614764
0.429006993
0.43039987
0.431793384
0.433187525
